,charge_capacity,voltage,dvdq
173717,1.2097e-06,3.00350958,2964.272058081567
173718,0.0001177573,3.00862135,43.85993362861124
173719,0.0003284305,3.01373312,24.263978528552
173720,0.0005608369,3.01884489,21.994962276819695
173721,0.0008189169,3.02403296,20.102565097612352
173722,0.0010974055,3.02906844,18.081458273198727
173723,0.0013857727,3.03410391,17.46200677299872
173724,0.0016840107000000001,3.03913939,16.884099274854886
173725,0.0019950862,3.04417487,16.187324298670326
173726,0.002323938,3.04928664,15.544296855198994
173727,0.0026636522,3.05432212,14.822695078033519
173728,0.0030191690999999995,3.05943389,14.37841633013793
173729,0.0033852182000000002,3.06454566,13.964711292744031
173730,0.0037680637,3.06965743,13.352044101871561
173731,0.0041627502,3.07476921,12.951494412464886
173732,0.004568307,3.07980468,12.416189296838352
173733,0.004989325,3.08484016,11.96024873053571
173734,0.0054123251,3.08995193,12.084559790894009
173735,0.005860018000000001,3.09498741,11.247620857336388
173736,0.0063146139,3.10002289,11.076826693536507
173737,0.0067836928,3.10513466,10.897463092439466
173738,0.007271541899999999,3.11017014,10.321798278340587
173739,0.0077669583,3.11520562,10.164136674011745
173740,0.0082758738,3.12031739,10.044437633568846
173741,0.0088130994,3.12542916,9.515127349611864
173742,0.009357898199999999,3.13054093,9.382858406075552
173743,0.0099244174,3.1356527,9.023118722311015
173744,0.0104945703,3.14076448,8.965630097272294
173745,0.0111051999,3.14579995,8.246357529558452
173746,0.011704971100000001,3.15083543,8.395668215196757
173747,0.012327448400000001,3.1559472,8.21197817175359
173748,0.0129756101,3.16113527,8.00428349849359
173749,0.013651748,3.16624704,7.5602476953394975
173750,0.0143252528,3.17128252,7.476531718479419
173751,0.0150148953,3.176318,7.301580166617644
173752,0.015731195,3.18142977,7.136356471995101
173753,0.016464288,3.18646525,6.868814734208428
173754,0.0172131821,3.19150072,6.723874577584079
173755,0.0179884023,3.1966125,6.593971622412649
173756,0.018774146999999998,3.20180056,6.6027298687858345
173757,0.0195964396,3.20683604,6.123708276167269
173758,0.020420712,3.21187152,6.108999888903837
173759,0.021279217599999997,3.21698329,5.954265178687057
173760,0.0221713003,3.22201877,5.64463361951661
173761,0.0230637022,3.22720684,5.813602592881538
173762,0.024003189100000002,3.23231861,5.4410231794814035
173763,0.024968015,3.23735409,5.219055582757329
173764,0.0259209918,3.24238956,5.283937657121591
173765,0.0269095233,3.24757763,5.248259666210317
173766,0.0279477612,3.25261311,4.8500252203946195
173767,0.0289886214,3.25772488,4.911101414172043
173768,0.0300703093,3.26283665,4.725734659889661
173769,0.0311819473,3.26794842,4.598412432834417
173770,0.0323334245,3.2729839,4.373060969053517
173771,0.033463500800000004,3.27801938,4.455876120927721
173772,0.034656449900000004,3.28313115,4.2849858390228945
173773,0.0358757246,3.28816663,4.129897881025335
173774,0.0371144427,3.2932784,4.126661263728813
173775,0.038388380699999995,3.29831388,3.9526884352193554
173776,0.0397176267,3.30334936,3.7882227971131384
173777,0.0410623327,3.30846113,3.8014034292946985
173778,0.042474530999999996,3.3134966,3.5656961206082913
173779,0.0438781631,3.31860838,3.6418232383091413
173780,0.0453562053,3.32364385,3.4068513063970296
173781,0.0468256864,3.32875563,3.4786292930142038
173782,0.048383710999999996,3.3338674,3.2809302241968723
173783,0.0499667421,3.33890288,3.180910343374108
173784,0.051596185700000005,3.34393835,3.0903002718318837
173785,0.0532490022,3.34897383,3.0466055970974684
173786,0.05496635,3.3540856,2.9765490718282357
173787,0.05674492,3.35927367,2.9169894914661723
173788,0.0586229068,3.36430915,2.6813181008966933
173789,0.060471274900000004,3.36942092,2.7655584404226246
173790,0.0624150886,3.3744563999999997,2.5905157474775278
173791,0.0644375783,3.37949187,2.489738266604163
173792,0.0664949705,3.38460365,2.484591902362204
173793,0.0686481354,3.38963912,2.33863648802809
173794,0.0709185151,3.3946746,2.217902142088004
173795,0.07326359959999999,3.39971008,2.147248851794036
173796,0.0757973089,3.40474556,1.9873945286490529
173797,0.0784366606,3.40978103,1.9078435056217227
173798,0.0814318931,3.41481651,1.6811649846971726
173799,0.08472964449999999,3.41992828,1.550077425458721
173800,0.08863177230000001,3.42496376,1.2904446645878933
173801,0.0931115846,3.42999924,1.1240381656121097
173802,0.0986131668,3.43503471,0.9152766998465592
173803,0.1052372566,3.44022278,0.7832125101962023
173804,0.1136267643,3.44525826,0.6002116190896025
173805,0.1229413121,3.45029374,0.5406038068724787
173806,0.1334770793,3.45532921,0.4779405148562934
173807,0.1454576384,3.46036469,0.42030425775236785
173808,0.1585353539,3.46547646,0.39087637286487886
173809,0.1727250485,3.47058824,0.3602459491984568
173810,0.18743156670000002,3.47562371,0.3423971555687135
173811,0.20220095329999999,3.48065919,0.34094036105620934
173812,0.21704670410000002,3.48569467,0.3391866176288228
173813,0.23112942579999998,3.49073014,0.3575636945238286
173814,0.2448750532,3.49576562,0.3663332239021775
173815,0.257729892,3.5008011,0.39171864216709923
173816,0.27002085989999997,3.50591287,0.41589645678089254
173817,0.2817008863,3.51094835,0.43111888856793273
173818,0.29306917379999997,3.51598383,0.4429409442724224
173819,0.3038222036,3.5210193,0.46828383196888806
173820,0.314563425,3.52605478,0.4687995724559883
173821,0.32543826789999997,3.53116655,0.4700546064914659
173822,0.336392429,3.53620203,0.45968650214504964
173823,0.3476587057,3.5413137999999997,0.45372310090759743
173824,0.35911819340000006,3.54634928,0.43941580390212964
173825,0.37063162899999996,3.55138476,0.4373568563661578
173826,0.38260957799999995,3.55642023,0.42039501086644654
173827,0.39480215960000004,3.56145571,0.41299539057600126
173828,0.40719124770000004,3.56649119,0.4064447648892271
173829,0.42015209509999996,3.57152667,0.38851472011019783
173830,0.4336393166,3.57663844,0.37900838211972765
173831,0.44805619729999996,3.58175021,0.3545683776110574
173832,0.4639415011,3.58678569,0.31698984567069577
173833,0.4807991824,3.59182116,0.29870478094659214
173834,0.4994647606,3.59685664,0.2697735878342822
173835,0.5191863678,3.60189212,0.2553280748837677
173836,0.5405729767,3.6069275999999997,0.23545013721177638
173837,0.5635037592000001,3.61196307,0.21959433787312696
173838,0.5887058171,3.61699855,0.19980431836127194
173839,0.6163455511,3.62203403,0.18218265052774607
173840,0.6469604334000001,3.6270695,0.16447784938880722
173841,0.6796066072,3.63210498,0.15424410930505789
173842,0.7144037584,3.63721675,0.14690196822780963
173843,0.749703485,3.64225223,0.1426492634648869
173844,0.7855361829999999,3.64728771,0.14052751484119577
173845,0.8196693476000001,3.65239948,0.149759627034377
173846,0.8548680107,3.65743496,0.14305884248197487
173847,0.8877374825,3.66247044,0.15319625549911844
173848,0.9200334701999999,3.6676585,0.1606410074278442
173849,0.9507619114,3.67269398,0.16387033651396377
173850,0.9794941117,3.67772946,0.17525563470300545
173851,1.0065107318000002,3.68276493,0.1863841583945986
173852,1.0323939621,3.68780041,0.19454604165079084
173853,1.0561477137000002,3.69283589,0.21198672465702736
173854,1.0789122119,3.69787137,0.22119881386194026
173855,1.1000189903,3.70290684,0.2385712260089384
173856,1.1193145982,3.70794232,0.260965087293958
173857,1.136877718,3.7129778,0.28670760419225455
173858,1.1535649428,3.71801328,0.30175658687178775
173859,1.1686786497,3.72312505,0.33822079743996325
173860,1.1835734306999999,3.72816052,0.3380694217669734
173861,1.1972913791,3.733196,0.3670723823403876
173862,1.2109646487,3.73830777,0.37385132814276134
173863,1.2247247103,3.74334325,0.3659489431352864
173864,1.2384960254000001,3.74837873,0.36564990078465254
173865,1.2524260226000001,3.7534905,0.36696130850708353
173866,1.2666769699,3.75860227,0.3586968565953312
173867,1.280909492,3.76363775,0.3538009612512306
173868,1.2952805765000002,3.76867323,0.3503897009304027
173869,1.3096467273999999,3.7737849999999997,0.35582043064989505
173870,1.3246744826999999,3.77882048,0.3350786527640123
173871,1.3391716437,3.78385595,0.3473418002322825
173872,1.3536938549000002,3.78889143,0.34674333892168674
173873,1.3680264247999998,3.79392691,0.3513312710226551
173874,1.3825884243000002,3.79896239,0.3457959190297498
173875,1.396786052,3.80399786,0.35466981571824113
173876,1.4109892199,3.80903334,0.354532174474806
173877,1.4248678357,3.81406882,0.3628229264774288
173878,1.4389538292,3.8191043,0.35748135195493863
173879,1.4524380759,3.82413977,0.37343354152540265
173880,1.4660375626,3.82917525,0.37026985731897666
173881,1.4789144232,3.83421073,0.39104873123985995
173882,1.4923299285,3.8393224999999997,0.38103447359438136
173883,1.5053181095,3.84435798,0.3876970916875692
173884,1.5180969578999999,3.84939345,0.39404724450791295
173885,1.5305528797,3.85442893,0.4042639381379961
173886,1.5432000119,3.85946441,0.39815192253754395
173887,1.5554636958,3.86457618,0.4168217349451113
173888,1.5679482427000002,3.86961166,0.403337024588214
173889,1.5798817307,3.87472343,0.428355062662291
173890,1.5919955893000002,3.87975891,0.4156792782790531
173891,1.6036785607,3.88479438,0.4310093577743199
173892,1.6153839618999999,3.88990616,0.43670267363605253
173893,1.6270314018,3.89494163,0.43232418825350777
173894,1.6387680463,3.89997711,0.4290391516910889
173895,1.6501251189,3.90501259,0.443378340293291
173896,1.661727785,3.91004807,0.4339933560624411
173897,1.6727701847,3.91508354,0.4560122923261918
173898,1.6840278676,3.92011902,0.44729275506561367
173899,1.6951765825,3.9251544999999997,0.45166461293440624
173900,1.7062272361000002,3.93018997,0.45567168986178597
173901,1.7171494579,3.93522545,0.46103074010083434
173902,1.7282274357,3.94026093,0.45454866320344534
173903,1.7390845121,3.9453727,0.47082380298803966
173904,1.7499576688999998,3.95040818,0.4631111362242458
173905,1.7607317981000001,3.95544366,0.46736770151461965
173906,1.7714220069,3.96047913,0.4710357013775222
173907,1.7819680009999999,3.96551461,0.47747798379803913
173908,1.7924658913999998,3.97062638,0.4869330699069907
173909,1.8031073413,3.97566186,0.4731949167920012
173910,1.8137089537,3.98077363,0.48216910853940803
173911,1.824089036,3.98580911,0.485109833859285
173912,1.8345359702000001,3.99084459,0.4820055246451928
173913,1.8447890258000001,3.99588006,0.49111895970079805
173914,1.8549873828999999,4.00091554,0.49375403809076956
173915,1.8651318083000001,4.00595102,0.49637902606235074
173916,1.8752235883000001,4.01106279,0.5065280852317807
173917,1.8853929855000002,4.01609827,0.49516012610837606
173918,1.8955271530000002,4.02121004,0.5044094643175426
173919,1.9055958419,4.02624552,0.5001127803247791
173920,1.9155888516,4.03128099,0.5038992406863854
173921,1.9253494168,4.03631647,0.5159004521554047
173922,1.9352551749,4.04135195,0.5083386803081045
173923,1.9449640705000002,4.04638743,0.518646013658955
173924,1.9547193671,4.0514228999999995,0.5161780524428274
173925,1.9642146262,4.05645838,0.5303151759147995
173926,1.9740002136,4.06157015,0.5223774303033311
173927,1.9837686469,4.06668193,0.5232957878723539
173928,1.9934255449,4.0717174,0.5214376293504017
173929,2.0028167595,4.07675288,0.5361904944656763
173930,2.0123297962,4.08186465,0.537343664404518
173931,2.0218076232,4.08690013,0.5312905584818037
173932,2.0312337127,4.0920119,0.5423001765450036
173933,2.0404655968000003,4.09712367,0.5537082078391985
173934,2.0499160936000003,4.10215915,0.5328270149769032
173935,2.0591088112,4.10719463,0.5477683770064389
173936,2.068296557,4.11223011,0.5480647929997945
173937,2.0773095594,4.11726558,0.5586895217054906
173938,2.0862764642,4.12230106,0.5615627813964781
173939,2.0951502166,4.12741283,0.5760550632479873
173940,2.1041885481000002,4.13244831,0.5571249516541581
173941,2.1129638709,4.13748379,0.5738227658110441
173942,2.1216990022,4.14267185,0.5939303969020003
173943,2.1306919284,4.14778363,0.5684223228700949
173944,2.1395307519999998,4.1528191,0.5696991169765756
173945,2.1479350719999997,4.15793088,0.6082324328473788
173946,2.1566323682,4.16296635,0.5789695882718632
173947,2.1649715203,4.16800183,0.6038359703255743
173948,2.1733024469999997,4.17303731,0.6044321575926633
173949,2.1814299314,4.17807279,0.6195619397308443
173950,2.1895541543,4.18318456,0.6292011018023718
173951,2.1978129816,4.18822004,0.6097088384461747
173952,2.2058052321,4.19325551,0.6300440658091231
173953,2.2136107809,4.19829099,0.6451154337813629
173954,2.2160315684,4.19996948,0.6933652788605463
